#FIG 3.2  Produced by xfig version 3.2.5b
Landscape
Center
Metric
A4      
100.00
Single
-2
1200 2
5 1 0 1 0 7 50 -1 -1 0.000 0 0 0 0 2655.000 1980.000 2610 1980 2655 1935 2700 1980
5 1 0 1 0 7 50 -1 -1 0.000 0 1 0 0 2745.000 1980.000 2700 1980 2745 2025 2790 1980
5 1 0 1 0 7 50 -1 -1 0.000 0 0 0 0 2835.000 1980.000 2790 1980 2835 1935 2880 1980
5 1 0 1 0 7 50 -1 -1 0.000 0 1 0 0 2925.000 1980.000 2880 1980 2925 2025 2970 1980
5 1 0 1 0 7 50 -1 -1 0.000 0 0 0 0 3015.000 1980.000 2970 1980 3015 1935 3060 1980
5 1 0 1 0 7 50 -1 -1 0.000 0 0 0 0 1665.000 1980.000 1710 1980 1665 2025 1620 1980
5 1 0 1 0 7 50 -1 -1 0.000 0 1 0 0 1575.000 1980.000 1620 1980 1575 1935 1530 1980
5 1 0 1 0 7 50 -1 -1 0.000 0 0 0 0 1485.000 1980.000 1530 1980 1485 2025 1440 1980
5 1 0 1 0 7 50 -1 -1 0.000 0 1 0 0 1395.000 1980.000 1440 1980 1395 1935 1350 1980
5 1 0 1 0 7 50 -1 -1 0.000 0 0 0 0 1305.000 1980.000 1350 1980 1305 2025 1260 1980
5 1 0 1 0 7 50 -1 -1 0.000 0 0 0 0 3375.000 3510.000 3420 3510 3375 3555 3330 3510
5 1 0 1 0 7 50 -1 -1 0.000 0 1 0 0 3285.000 3510.000 3330 3510 3285 3465 3240 3510
5 1 0 1 0 7 50 -1 -1 0.000 0 0 0 0 3195.000 3510.000 3240 3510 3195 3555 3150 3510
5 1 0 1 0 7 50 -1 -1 0.000 0 1 0 0 3105.000 3510.000 3150 3510 3105 3465 3060 3510
5 1 0 1 0 7 50 -1 -1 0.000 0 0 0 0 3015.000 3510.000 3060 3510 3015 3555 2970 3510
5 1 0 1 0 7 50 -1 -1 0.000 0 1 0 0 2925.000 3510.000 2970 3510 2925 3465 2880 3510
5 1 0 1 0 7 50 -1 -1 0.000 0 0 0 0 2835.000 3510.000 2880 3510 2835 3555 2790 3510
5 1 0 1 0 7 50 -1 -1 0.000 0 1 0 0 2745.000 3510.000 2790 3510 2745 3465 2700 3510
5 1 0 1 0 7 50 -1 -1 0.000 0 0 0 0 2655.000 3510.000 2700 3510 2655 3555 2610 3510
5 1 0 1 0 7 50 -1 -1 0.000 0 1 0 0 2565.000 3510.000 2610 3510 2565 3465 2520 3510
5 1 0 1 0 7 50 -1 -1 0.000 0 0 0 0 2475.000 3510.000 2520 3510 2475 3555 2430 3510
5 1 0 1 0 7 50 -1 -1 0.000 0 1 0 0 2385.000 3510.000 2430 3510 2385 3465 2340 3510
5 1 0 1 0 7 50 -1 -1 0.000 0 0 0 0 2295.000 3510.000 2340 3510 2295 3555 2250 3510
5 1 0 1 0 7 50 -1 -1 0.000 0 1 0 0 2205.000 3510.000 2250 3510 2205 3465 2160 3510
5 1 0 1 0 7 50 -1 -1 0.000 0 0 0 0 2115.000 3510.000 2160 3510 2115 3555 2070 3510
5 1 0 1 0 7 50 -1 -1 0.000 0 1 0 0 2025.000 3510.000 2070 3510 2025 3465 1980 3510
5 1 0 1 0 7 50 -1 -1 0.000 0 0 0 0 1935.000 3510.000 1980 3510 1935 3555 1890 3510
5 1 0 1 0 7 50 -1 -1 0.000 0 1 0 0 1845.000 3510.000 1890 3510 1845 3465 1800 3510
5 1 0 1 0 7 50 -1 -1 0.000 0 0 0 0 1755.000 3510.000 1800 3510 1755 3555 1710 3510
5 1 0 1 0 7 50 -1 -1 0.000 0 1 0 0 1665.000 3510.000 1710 3510 1665 3465 1620 3510
5 1 0 1 0 7 50 -1 -1 0.000 0 0 0 0 1575.000 3510.000 1620 3510 1575 3555 1530 3510
5 1 0 1 0 7 50 -1 -1 0.000 0 1 0 0 1485.000 3510.000 1530 3510 1485 3465 1440 3510
5 1 0 1 0 7 50 -1 -1 0.000 0 0 0 0 1395.000 3510.000 1440 3510 1395 3555 1350 3510
5 1 0 1 0 7 50 -1 -1 0.000 0 1 0 0 1305.000 3510.000 1350 3510 1305 3465 1260 3510
6 0 630 900 990
2 1 0 1 0 7 50 -1 -1 0.000 0 0 7 0 0 2
	 0 630 900 630
2 1 0 1 0 7 50 -1 -1 0.000 0 0 -1 0 0 2
	 0 720 900 720
2 1 0 1 0 7 50 -1 -1 0.000 0 0 -1 0 0 2
	 0 810 900 810
2 1 0 1 0 7 50 -1 -1 0.000 0 0 -1 0 0 2
	 0 900 900 900
2 1 0 1 0 7 50 -1 -1 0.000 0 0 -1 0 0 2
	 0 990 900 990
-6
6 0 1080 900 1440
2 1 0 1 0 7 50 -1 -1 0.000 0 0 7 0 0 2
	 0 1080 900 1080
2 1 0 1 0 7 50 -1 -1 0.000 0 0 -1 0 0 2
	 0 1170 900 1170
2 1 0 1 0 7 50 -1 -1 0.000 0 0 -1 0 0 2
	 0 1260 900 1260
2 1 0 1 0 7 50 -1 -1 0.000 0 0 -1 0 0 2
	 0 1350 900 1350
2 1 0 1 0 7 50 -1 -1 0.000 0 0 -1 0 0 2
	 0 1440 900 1440
-6
6 0 1530 900 1890
2 1 0 1 0 7 50 -1 -1 0.000 0 0 7 0 0 2
	 0 1530 900 1530
2 1 0 1 0 7 50 -1 -1 0.000 0 0 -1 0 0 2
	 0 1620 900 1620
2 1 0 1 0 7 50 -1 -1 0.000 0 0 -1 0 0 2
	 0 1710 900 1710
2 1 0 1 0 7 50 -1 -1 0.000 0 0 -1 0 0 2
	 0 1800 900 1800
2 1 0 1 0 7 50 -1 -1 0.000 0 0 -1 0 0 2
	 0 1890 900 1890
-6
6 0 1980 900 2340
2 1 0 1 0 7 50 -1 -1 0.000 0 0 7 0 0 2
	 0 1980 900 1980
2 1 0 1 0 7 50 -1 -1 0.000 0 0 -1 0 0 2
	 0 2070 900 2070
2 1 0 1 0 7 50 -1 -1 0.000 0 0 -1 0 0 2
	 0 2160 900 2160
2 1 0 1 0 7 50 -1 -1 0.000 0 0 -1 0 0 2
	 0 2250 900 2250
2 1 0 1 0 7 50 -1 -1 0.000 0 0 -1 0 0 2
	 0 2340 900 2340
-6
6 0 2430 900 2790
2 1 0 1 0 7 50 -1 -1 0.000 0 0 7 0 0 2
	 0 2430 900 2430
2 1 0 1 0 7 50 -1 -1 0.000 0 0 -1 0 0 2
	 0 2520 900 2520
2 1 0 1 0 7 50 -1 -1 0.000 0 0 -1 0 0 2
	 0 2610 900 2610
2 1 0 1 0 7 50 -1 -1 0.000 0 0 -1 0 0 2
	 0 2700 900 2700
2 1 0 1 0 7 50 -1 -1 0.000 0 0 -1 0 0 2
	 0 2790 900 2790
-6
6 0 2880 900 3240
2 1 0 1 0 7 50 -1 -1 0.000 0 0 7 0 0 2
	 0 2880 900 2880
2 1 0 1 0 7 50 -1 -1 0.000 0 0 -1 0 0 2
	 0 2970 900 2970
2 1 0 1 0 7 50 -1 -1 0.000 0 0 -1 0 0 2
	 0 3060 900 3060
2 1 0 1 0 7 50 -1 -1 0.000 0 0 -1 0 0 2
	 0 3150 900 3150
2 1 0 1 0 7 50 -1 -1 0.000 0 0 -1 0 0 2
	 0 3240 900 3240
-6
6 0 3330 900 3690
2 1 0 1 0 7 50 -1 -1 0.000 0 0 7 0 0 2
	 0 3330 900 3330
2 1 0 1 0 7 50 -1 -1 0.000 0 0 -1 0 0 2
	 0 3420 900 3420
2 1 0 1 0 7 50 -1 -1 0.000 0 0 -1 0 0 2
	 0 3510 900 3510
2 1 0 1 0 7 50 -1 -1 0.000 0 0 -1 0 0 2
	 0 3600 900 3600
2 1 0 1 0 7 50 -1 -1 0.000 0 0 -1 0 0 2
	 0 3690 900 3690
-6
6 0 3780 900 4140
2 1 0 1 0 7 50 -1 -1 0.000 0 0 7 0 0 2
	 0 3780 900 3780
2 1 0 1 0 7 50 -1 -1 0.000 0 0 -1 0 0 2
	 0 3870 900 3870
2 1 0 1 0 7 50 -1 -1 0.000 0 0 -1 0 0 2
	 0 3960 900 3960
2 1 0 1 0 7 50 -1 -1 0.000 0 0 -1 0 0 2
	 0 4050 900 4050
2 1 0 1 0 7 50 -1 -1 0.000 0 0 -1 0 0 2
	 0 4140 900 4140
-6
6 0 4230 900 4590
2 1 0 1 0 7 50 -1 -1 0.000 0 0 7 0 0 2
	 0 4230 900 4230
2 1 0 1 0 7 50 -1 -1 0.000 0 0 -1 0 0 2
	 0 4320 900 4320
2 1 0 1 0 7 50 -1 -1 0.000 0 0 -1 0 0 2
	 0 4410 900 4410
2 1 0 1 0 7 50 -1 -1 0.000 0 0 -1 0 0 2
	 0 4500 900 4500
2 1 0 1 0 7 50 -1 -1 0.000 0 0 -1 0 0 2
	 0 4590 900 4590
-6
6 0 4680 900 5040
2 1 0 1 0 7 50 -1 -1 0.000 0 0 7 0 0 2
	 0 4680 900 4680
2 1 0 1 0 7 50 -1 -1 0.000 0 0 -1 0 0 2
	 0 4770 900 4770
2 1 0 1 0 7 50 -1 -1 0.000 0 0 -1 0 0 2
	 0 4860 900 4860
2 1 0 1 0 7 50 -1 -1 0.000 0 0 -1 0 0 2
	 0 4950 900 4950
2 1 0 1 0 7 50 -1 -1 0.000 0 0 -1 0 0 2
	 0 5040 900 5040
-6
6 0 5130 900 5490
2 1 0 1 0 7 50 -1 -1 0.000 0 0 7 0 0 2
	 0 5130 900 5130
2 1 0 1 0 7 50 -1 -1 0.000 0 0 -1 0 0 2
	 0 5220 900 5220
2 1 0 1 0 7 50 -1 -1 0.000 0 0 -1 0 0 2
	 0 5310 900 5310
2 1 0 1 0 7 50 -1 -1 0.000 0 0 -1 0 0 2
	 0 5400 900 5400
2 1 0 1 0 7 50 -1 -1 0.000 0 0 -1 0 0 2
	 0 5490 900 5490
-6
6 1710 630 2610 990
2 1 0 1 0 7 50 -1 -1 0.000 0 0 7 0 0 2
	 1710 630 2610 630
2 1 0 1 0 7 50 -1 -1 0.000 0 0 -1 0 0 2
	 1710 720 2610 720
2 1 0 1 0 7 50 -1 -1 0.000 0 0 -1 0 0 2
	 1710 810 2610 810
2 1 0 1 0 7 50 -1 -1 0.000 0 0 -1 0 0 2
	 1710 900 2610 900
2 1 0 1 0 7 50 -1 -1 0.000 0 0 -1 0 0 2
	 1710 990 2610 990
-6
6 1710 1080 2610 1440
2 1 0 1 0 7 50 -1 -1 0.000 0 0 7 0 0 2
	 1710 1080 2610 1080
2 1 0 1 0 7 50 -1 -1 0.000 0 0 -1 0 0 2
	 1710 1170 2610 1170
2 1 0 1 0 7 50 -1 -1 0.000 0 0 -1 0 0 2
	 1710 1260 2610 1260
2 1 0 1 0 7 50 -1 -1 0.000 0 0 -1 0 0 2
	 1710 1350 2610 1350
2 1 0 1 0 7 50 -1 -1 0.000 0 0 -1 0 0 2
	 1710 1440 2610 1440
-6
6 1710 1530 2610 1890
2 1 0 1 0 7 50 -1 -1 0.000 0 0 7 0 0 2
	 1710 1530 2610 1530
2 1 0 1 0 7 50 -1 -1 0.000 0 0 -1 0 0 2
	 1710 1620 2610 1620
2 1 0 1 0 7 50 -1 -1 0.000 0 0 -1 0 0 2
	 1710 1710 2610 1710
2 1 0 1 0 7 50 -1 -1 0.000 0 0 -1 0 0 2
	 1710 1800 2610 1800
2 1 0 1 0 7 50 -1 -1 0.000 0 0 -1 0 0 2
	 1710 1890 2610 1890
-6
6 3420 630 4320 990
2 1 0 1 0 7 50 -1 -1 0.000 0 0 7 0 0 2
	 3420 630 4320 630
2 1 0 1 0 7 50 -1 -1 0.000 0 0 -1 0 0 2
	 3420 720 4320 720
2 1 0 1 0 7 50 -1 -1 0.000 0 0 -1 0 0 2
	 3420 810 4320 810
2 1 0 1 0 7 50 -1 -1 0.000 0 0 -1 0 0 2
	 3420 900 4320 900
2 1 0 1 0 7 50 -1 -1 0.000 0 0 -1 0 0 2
	 3420 990 4320 990
-6
6 3420 1080 4320 1440
2 1 0 1 0 7 50 -1 -1 0.000 0 0 7 0 0 2
	 3420 1080 4320 1080
2 1 0 1 0 7 50 -1 -1 0.000 0 0 -1 0 0 2
	 3420 1170 4320 1170
2 1 0 1 0 7 50 -1 -1 0.000 0 0 -1 0 0 2
	 3420 1260 4320 1260
2 1 0 1 0 7 50 -1 -1 0.000 0 0 -1 0 0 2
	 3420 1350 4320 1350
2 1 0 1 0 7 50 -1 -1 0.000 0 0 -1 0 0 2
	 3420 1440 4320 1440
-6
6 3420 1530 4320 1890
2 1 0 1 0 7 50 -1 -1 0.000 0 0 7 0 0 2
	 3420 1530 4320 1530
2 1 0 1 0 7 50 -1 -1 0.000 0 0 -1 0 0 2
	 3420 1620 4320 1620
2 1 0 1 0 7 50 -1 -1 0.000 0 0 -1 0 0 2
	 3420 1710 4320 1710
2 1 0 1 0 7 50 -1 -1 0.000 0 0 -1 0 0 2
	 3420 1800 4320 1800
2 1 0 1 0 7 50 -1 -1 0.000 0 0 -1 0 0 2
	 3420 1890 4320 1890
-6
6 3420 1980 4320 2340
2 1 0 1 0 7 50 -1 -1 0.000 0 0 7 0 0 2
	 3420 1980 4320 1980
2 1 0 1 0 7 50 -1 -1 0.000 0 0 -1 0 0 2
	 3420 2070 4320 2070
2 1 0 1 0 7 50 -1 -1 0.000 0 0 -1 0 0 2
	 3420 2160 4320 2160
2 1 0 1 0 7 50 -1 -1 0.000 0 0 -1 0 0 2
	 3420 2250 4320 2250
2 1 0 1 0 7 50 -1 -1 0.000 0 0 -1 0 0 2
	 3420 2340 4320 2340
-6
6 3420 2430 4320 2790
2 1 0 1 0 7 50 -1 -1 0.000 0 0 7 0 0 2
	 3420 2430 4320 2430
2 1 0 1 0 7 50 -1 -1 0.000 0 0 -1 0 0 2
	 3420 2520 4320 2520
2 1 0 1 0 7 50 -1 -1 0.000 0 0 -1 0 0 2
	 3420 2610 4320 2610
2 1 0 1 0 7 50 -1 -1 0.000 0 0 -1 0 0 2
	 3420 2700 4320 2700
2 1 0 1 0 7 50 -1 -1 0.000 0 0 -1 0 0 2
	 3420 2790 4320 2790
-6
6 3420 2880 4320 3240
2 1 0 1 0 7 50 -1 -1 0.000 0 0 7 0 0 2
	 3420 2880 4320 2880
2 1 0 1 0 7 50 -1 -1 0.000 0 0 -1 0 0 2
	 3420 2970 4320 2970
2 1 0 1 0 7 50 -1 -1 0.000 0 0 -1 0 0 2
	 3420 3060 4320 3060
2 1 0 1 0 7 50 -1 -1 0.000 0 0 -1 0 0 2
	 3420 3150 4320 3150
2 1 0 1 0 7 50 -1 -1 0.000 0 0 -1 0 0 2
	 3420 3240 4320 3240
-6
6 0 5580 900 5940
2 1 0 1 0 7 50 -1 -1 0.000 0 0 7 0 0 2
	 0 5580 900 5580
2 1 0 1 0 7 50 -1 -1 0.000 0 0 -1 0 0 2
	 0 5670 900 5670
2 1 0 1 0 7 50 -1 -1 0.000 0 0 -1 0 0 2
	 0 5760 900 5760
2 1 0 1 0 7 50 -1 -1 0.000 0 0 -1 0 0 2
	 0 5850 900 5850
2 1 0 1 0 7 50 -1 -1 0.000 0 0 -1 0 0 2
	 0 5940 900 5940
-6
6 0 6030 900 6390
2 1 0 1 0 7 50 -1 -1 0.000 0 0 7 0 0 2
	 0 6030 900 6030
2 1 0 1 0 7 50 -1 -1 0.000 0 0 -1 0 0 2
	 0 6120 900 6120
2 1 0 1 0 7 50 -1 -1 0.000 0 0 -1 0 0 2
	 0 6210 900 6210
2 1 0 1 0 7 50 -1 -1 0.000 0 0 -1 0 0 2
	 0 6300 900 6300
2 1 0 1 0 7 50 -1 -1 0.000 0 0 -1 0 0 2
	 0 6390 900 6390
-6
2 1 0 1 0 7 50 -1 -1 0.000 0 0 -1 0 0 2
	 3420 3330 4320 3330
2 1 0 1 0 7 50 -1 -1 0.000 0 0 -1 0 0 2
	 3420 3420 4320 3420
2 1 0 1 0 7 50 -1 -1 0.000 0 0 -1 0 0 2
	 0 6480 900 6480
2 1 0 1 0 7 50 -1 -1 0.000 0 0 -1 0 0 2
	 0 6570 900 6570
2 1 0 3 0 7 50 -1 -1 0.000 0 0 -1 0 0 2
	 0 6660 900 6660
2 1 0 3 0 7 50 -1 -1 0.000 0 0 -1 0 0 2
	 1710 1980 2610 1980
2 1 0 3 0 7 50 -1 -1 0.000 0 0 -1 0 0 2
	 3420 3510 4320 3510
2 1 0 1 0 7 50 -1 -1 0.000 0 0 -1 1 0 2
	0 0 1.00 60.00 120.00
	 3060 1980 3420 1980
2 1 0 1 0 7 50 -1 -1 0.000 0 0 -1 1 0 2
	0 0 1.00 60.00 120.00
	 1260 1980 900 1980
2 1 0 1 0 7 50 -1 -1 0.000 0 0 -1 1 0 2
	0 0 1.00 60.00 120.00
	 1260 3510 900 3510
2 1 0 1 0 7 50 -1 -1 0.000 0 0 -1 1 0 2
	0 0 1.00 60.00 120.00
	 2160 1980 360 6660
2 1 0 1 0 7 50 -1 -1 0.000 0 0 -1 0 0 1
	 360 6660
2 1 0 1 0 7 50 -1 -1 0.000 0 0 -1 1 0 2
	0 0 1.00 60.00 120.00
	 3870 3510 540 6660
4 0 0 50 -1 1 12 0.0000 4 135 105 3825 450 T\001
4 0 0 50 -1 1 10 0.0000 4 105 75 3915 540 1\001
4 0 0 50 -1 1 12 0.0000 4 135 105 2115 450 S\001
4 0 0 50 -1 1 10 0.0000 4 105 75 2205 540 1\001
4 0 0 50 -1 1 12 0.0000 4 135 105 405 450 S\001
4 0 0 50 -1 1 10 0.0000 4 105 75 495 540 0\001
4 0 0 50 -1 0 10 0.0000 4 105 240 2700 2205 ISC\001
4 0 0 50 -1 0 10 0.0000 4 105 165 1395 2205 IC\001
4 0 0 50 -1 0 10 0.0000 4 105 240 2700 3735 ISC\001
4 0 0 50 -1 0 10 0.0000 4 105 840 2025 2880 Fluorescentie\001
4 0 0 50 -1 0 10 0.0000 4 105 900 2565 4995 Fosforescentie\001
