#FIG 3.2  Produced by xfig version 3.2.5b
Landscape
Center
Metric
A4      
100.00
Single
-2
1200 2
5 1 0 1 0 7 50 -1 -1 3.000 0 0 0 0 0.000 6525.000 -180 6390 0 6300 180 6390
5 1 0 1 0 7 50 -1 -1 3.000 0 1 0 0 360.000 6255.000 180 6390 360 6480 540 6390
5 1 0 1 0 7 50 -1 -1 3.000 0 0 0 0 720.000 6525.000 540 6390 720 6300 900 6390
5 1 0 1 0 7 50 -1 -1 3.000 0 1 0 0 1080.000 6255.000 900 6390 1080 6480 1260 6390
5 1 0 1 0 7 50 -1 -1 3.000 0 0 0 0 1440.000 6525.000 1260 6390 1440 6300 1620 6390
5 1 0 1 0 7 50 -1 -1 3.000 0 0 0 0 0.000 6615.000 -180 6480 0 6390 180 6480
5 1 0 1 0 7 50 -1 -1 3.000 0 1 0 0 360.000 6345.000 180 6480 360 6570 540 6480
5 1 0 1 0 7 50 -1 -1 3.000 0 0 0 0 720.000 6615.000 540 6480 720 6390 900 6480
5 1 0 1 0 7 50 -1 -1 3.000 0 1 0 0 1080.000 6345.000 900 6480 1080 6570 1260 6480
5 1 0 1 0 7 50 -1 -1 3.000 0 0 0 0 1440.000 6615.000 1260 6480 1440 6390 1620 6480
2 1 0 1 0 7 50 -1 -1 0.000 0 0 -1 0 0 2
	 0 0 -90 0
2 1 0 1 0 7 50 -1 -1 0.000 0 0 -1 0 0 2
	 0 450 -90 450
2 1 0 1 0 7 50 -1 -1 0.000 0 0 -1 0 0 2
	 0 900 -90 900
2 1 0 1 0 7 50 -1 -1 0.000 0 0 -1 0 0 2
	 0 1350 -90 1350
2 1 0 1 0 7 50 -1 -1 0.000 0 0 -1 0 0 2
	 0 1800 -90 1800
2 1 0 1 0 7 50 -1 -1 0.000 0 0 -1 0 0 2
	 0 2250 -90 2250
2 1 0 1 0 7 50 -1 -1 0.000 0 0 -1 0 0 2
	 0 2700 -90 2700
2 1 0 1 0 7 50 -1 -1 0.000 0 0 -1 0 0 2
	 0 3150 -90 3150
2 1 0 1 0 7 50 -1 -1 0.000 0 0 -1 0 0 2
	 0 3600 -90 3600
2 1 0 1 0 7 50 -1 -1 0.000 0 0 -1 0 0 2
	 0 4050 -90 4050
2 1 0 1 0 7 50 -1 -1 0.000 0 0 -1 0 0 2
	 0 4500 -90 4500
2 1 0 1 0 7 50 -1 -1 0.000 0 0 -1 0 0 2
	 0 4950 -90 4950
2 1 0 1 0 7 50 -1 -1 0.000 0 0 -1 0 0 2
	 0 5400 -90 5400
2 1 0 1 0 7 50 -1 -1 0.000 0 0 -1 0 0 2
	 0 5850 -90 5850
2 1 0 1 0 7 50 -1 -1 3.000 0 0 -1 0 0 2
	 90 225 900 225
2 1 0 1 0 7 50 -1 -1 3.000 0 0 -1 0 0 2
	 990 225 1800 225
2 1 0 1 0 7 50 -1 -1 3.000 0 0 -1 0 0 2
	 1890 270 2700 270
2 1 0 1 0 7 50 -1 -1 3.000 0 0 -1 0 0 2
	 2790 270 3600 270
2 1 0 1 0 7 50 -1 -1 3.000 0 0 -1 0 0 2
	 4050 405 4860 405
2 1 0 1 0 7 50 -1 -1 3.000 0 0 -1 0 0 2
	 4950 315 5760 315
2 1 0 1 0 7 50 -1 -1 3.000 0 0 -1 0 0 2
	 5850 360 6660 360
2 1 0 1 0 7 50 -1 -1 3.000 0 0 -1 0 0 2
	 6750 360 7560 360
2 1 0 1 0 7 50 -1 -1 0.000 0 0 -1 0 0 3
	 0 6300 0 0 7650 0
2 1 2 1 0 7 50 -1 -1 3.000 0 0 7 0 0 2
	 0 125 7650 125
2 1 2 1 0 7 50 -1 -1 3.000 0 0 7 0 0 2
	 0 170 7650 170
2 1 2 1 0 7 50 -1 -1 3.000 0 0 7 0 0 2
	 0 245 7650 245
2 1 2 1 0 7 50 -1 -1 3.000 0 0 7 0 0 2
	 0 383 7650 383
2 1 2 1 0 7 50 -1 -1 3.000 0 0 7 0 0 2
	 0 680 7650 680
2 1 2 1 0 7 50 -1 -1 3.000 0 0 7 0 0 2
	 0 1530 7650 1530
2 1 2 1 0 7 50 -1 -1 3.000 0 0 7 0 0 2
	 0 6120 7650 6120
2 1 0 1 0 7 50 -1 -1 3.000 0 0 -1 0 0 2
	 6660 675 5850 675
2 1 0 1 0 7 50 -1 -1 3.000 0 0 -1 0 0 2
	 5760 675 4950 675
2 1 0 1 0 7 50 -1 -1 3.000 0 0 -1 0 0 2
	 4860 810 4050 810
2 1 0 1 0 7 50 -1 -1 3.000 0 0 -1 0 0 2
	 900 675 90 675
2 1 0 1 0 7 50 -1 -1 3.000 0 0 -1 0 0 2
	 1800 585 990 585
2 1 0 1 0 7 50 -1 -1 3.000 0 0 -1 0 0 2
	 2700 630 1890 630
2 1 0 1 0 7 50 -1 -1 3.000 0 0 -1 0 0 2
	 90 1575 900 1575
2 1 0 1 0 7 50 -1 -1 3.000 0 0 -1 0 0 2
	 990 1440 1800 1440
2 1 0 1 0 7 50 -1 -1 3.000 0 0 -1 0 0 2
	 4950 1530 5760 1530
2 1 0 1 0 7 50 -1 -1 3.000 0 0 -1 0 0 2
	 4860 1890 4050 1890
2 1 0 1 0 7 50 -1 -1 3.000 0 0 -1 0 0 2
	 0 6390 0 7335
2 1 0 1 0 7 50 -1 -1 3.000 0 0 -1 0 0 2
	 0 6750 -90 6750
2 1 0 1 0 7 50 -1 -1 3.000 0 0 -1 0 0 2
	 0 7200 -90 7200
2 1 0 1 0 7 50 -1 -1 0.000 0 0 7 1 0 2
	0 0 1.00 60.00 120.00
	 -540 7020 -540 7470
2 1 0 1 0 7 50 -1 -1 3.000 0 0 -1 0 0 3
	 90 6975 675 6975 900 6975
2 1 0 1 0 7 50 -1 -1 3.000 0 0 -1 1 0 2
	0 0 1.00 60.00 120.00
	 1260 225 360 6975
2 1 0 1 0 7 50 -1 -1 3.000 0 0 -1 1 0 2
	0 0 1.00 60.00 120.00
	 1305 585 450 6975
2 1 0 1 0 7 50 -1 -1 3.000 0 0 -1 1 0 2
	0 0 1.00 60.00 120.00
	 1305 1440 540 6975
2 1 0 1 0 7 50 -1 -1 3.000 0 0 -1 1 0 2
	0 0 1.00 60.00 120.00
	 1980 270 1665 585
2 1 0 1 0 7 50 -1 -1 3.000 0 0 -1 1 0 2
	0 0 1.00 60.00 120.00
	 810 225 1080 585
2 1 0 1 0 7 50 -1 -1 3.000 0 0 -1 1 0 2
	0 0 1.00 60.00 120.00
	 1080 225 720 675
2 1 0 1 0 7 50 -1 -1 3.000 0 0 -1 1 0 2
	0 0 1.00 60.00 120.00
	 810 675 1035 1440
2 1 0 1 0 7 50 -1 -1 3.000 0 0 -1 1 0 2
	0 0 1.00 60.00 120.00
	 1035 1440 810 1575
2 1 0 1 0 7 50 -1 -1 3.000 0 0 -1 1 0 2
	0 0 1.00 60.00 120.00
	 1125 225 540 1575
2 1 0 1 0 7 50 -1 -1 3.000 0 0 -1 1 0 2
	0 0 1.00 60.00 120.00
	 1125 585 630 1575
2 1 0 1 0 7 50 -1 -1 3.000 0 0 -1 1 0 2
	0 0 1.00 60.00 120.00
	 1665 225 1980 630
2 1 0 1 0 7 50 -1 -1 3.000 0 0 -1 1 0 2
	0 0 1.00 60.00 120.00
	 2025 270 1440 1440
2 1 0 1 0 7 50 -1 -1 3.000 0 0 -1 1 0 2
	0 0 1.00 60.00 120.00
	 2070 630 1530 1440
2 1 0 1 0 7 50 -1 -1 3.000 0 0 -1 1 0 2
	0 0 1.00 60.00 120.00
	 2970 270 2520 630
2 1 0 1 0 7 50 -1 -1 3.000 0 0 -1 1 0 2
	0 0 1.00 60.00 120.00
	 5040 315 4545 1890
2 1 0 1 0 7 50 -1 -1 3.000 0 0 -1 1 0 2
	0 0 1.00 60.00 120.00
	 5040 675 4635 1890
2 1 0 1 0 7 50 -1 -1 3.000 0 0 -1 1 0 2
	0 0 1.00 60.00 120.00
	 4770 405 5130 675
2 1 0 1 0 7 50 -1 -1 3.000 0 0 -1 1 0 2
	0 0 1.00 60.00 120.00
	 4680 405 5355 1530
2 1 0 1 0 7 50 -1 -1 3.000 0 0 -1 1 0 2
	0 0 1.00 60.00 120.00
	 4680 810 5265 1530
2 1 0 1 0 7 50 -1 -1 3.000 0 0 -1 1 0 2
	0 0 1.00 60.00 120.00
	 5670 315 5985 675
2 1 0 1 0 7 50 -1 -1 3.000 0 0 -1 1 0 2
	0 0 1.00 60.00 120.00
	 5940 360 5445 1530
2 1 0 1 0 7 50 -1 -1 3.000 0 0 -1 1 0 2
	0 0 1.00 60.00 120.00
	 5895 360 5670 675
2 1 0 1 0 7 50 -1 -1 3.000 0 0 -1 1 0 2
	0 0 1.00 60.00 120.00
	 6930 360 6480 675
2 1 1 1 0 7 50 -1 -1 4.000 0 0 7 0 0 2
	 3825 0 3825 6750
4 0 0 50 -1 0 12 0.0000 4 135 105 -270 45 0\001
4 0 0 50 -1 0 12 0.0000 4 135 270 -405 4545 -10\001
4 0 0 50 -1 0 12 0.0000 4 135 165 -315 2295 -5\001
4 0 0 50 -1 1 12 0.0000 4 135 120 1350 -135 P\001
4 0 0 50 -1 1 12 0.0000 4 135 105 450 -135 S\001
4 0 0 50 -1 1 12 0.0000 4 135 135 2250 -135 D\001
4 0 0 50 -1 1 12 0.0000 4 135 120 3150 -135 F\001
4 0 0 50 -1 1 12 0.0000 4 135 105 4410 -135 S\001
4 0 0 50 -1 1 12 0.0000 4 135 120 5310 -135 P\001
4 0 0 50 -1 1 12 0.0000 4 135 120 7110 -135 F\001
4 0 0 50 -1 1 12 0.0000 4 135 135 6210 -135 D\001
4 0 0 50 -1 1 10 0.0000 4 105 75 405 -225 1\001
4 0 0 50 -1 1 10 0.0000 4 105 75 1305 -225 1\001
4 0 0 50 -1 1 10 0.0000 4 105 75 2205 -225 1\001
4 0 0 50 -1 1 10 0.0000 4 105 75 3105 -225 1\001
4 0 0 50 -1 1 10 0.0000 4 105 75 4365 -225 3\001
4 0 0 50 -1 1 10 0.0000 4 105 75 5265 -225 3\001
4 0 0 50 -1 1 10 0.0000 4 105 75 6165 -225 3\001
4 0 0 50 -1 1 10 0.0000 4 105 75 7065 -225 3\001
4 0 0 50 -1 0 10 0.0000 4 105 120 7830 1530 H\001
4 0 0 50 -1 0 10 0.0000 4 105 120 7830 720 H\001
4 0 0 50 -1 0 12 1.5708 4 180 1185 -630 7290 Energy in [eV]\001
4 0 0 50 -1 0 10 0.0000 4 105 210 -360 7245 -25\001
4 0 0 50 -1 0 10 0.0000 4 105 705 1170 5310 Parahelium\001
4 0 0 50 -1 0 10 0.0000 4 105 810 4410 5310 Orthohelium\001
4 0 0 50 -1 0 10 0.0000 4 105 120 7830 6165 H\001
4 0 0 50 -1 0 10 0.0000 4 105 360 -450 6930 n    =1\001
4 0 0 50 -1 0 10 0.0000 4 105 180 -360 7020 He\001
4 0 0 50 -1 0 10 0.0000 4 105 360 -495 270 n    =4\001
4 0 0 50 -1 0 10 0.0000 4 105 360 -495 675 n    =3\001
4 0 0 50 -1 0 10 0.0000 4 105 360 -495 1575 n    =2\001
4 0 0 50 -1 0 10 0.0000 4 105 180 -405 360 He\001
4 0 0 50 -1 0 10 0.0000 4 105 180 -405 765 He\001
4 0 0 50 -1 0 10 0.0000 4 105 180 -405 1665 He\001
4 0 0 50 -1 0 10 0.0000 4 105 330 7740 630 n   =3\001
4 0 0 50 -1 0 10 0.0000 4 105 330 7740 1440 n   =2\001
4 0 0 50 -1 0 10 0.0000 4 105 330 7740 6075 n   =1\001
