#FIG 3.2  Produced by xfig version 3.2.5b
Landscape
Center
Metric
A4      
100.00
Single
-2
1200 2
5 1 0 1 0 7 50 -1 -1 0.000 0 0 0 0 6210.000 2565.000 6210 2520 6255 2565 6210 2610
5 1 0 1 0 7 50 -1 -1 0.000 0 1 0 0 6210.000 2655.000 6210 2610 6165 2655 6210 2700
5 1 0 1 0 7 50 -1 -1 0.000 0 0 0 0 6210.000 2745.000 6210 2700 6255 2745 6210 2790
5 1 0 1 0 7 50 -1 -1 0.000 0 1 0 0 6210.000 2835.000 6210 2790 6165 2835 6210 2880
5 1 0 1 0 7 50 -1 -1 0.000 0 0 0 0 3870.000 2565.000 3870 2520 3915 2565 3870 2610
5 1 0 1 0 7 50 -1 -1 0.000 0 1 0 0 3870.000 2655.000 3870 2610 3825 2655 3870 2700
5 1 0 1 0 7 50 -1 -1 0.000 0 0 0 0 3870.000 2745.000 3870 2700 3915 2745 3870 2790
5 1 0 1 0 7 50 -1 -1 0.000 0 1 0 0 3870.000 2835.000 3870 2790 3825 2835 3870 2880
5 1 0 1 0 7 50 -1 -1 0.000 0 0 0 0 7380.000 3015.000 7380 2970 7425 3015 7380 3060
5 1 0 1 0 7 50 -1 -1 0.000 0 1 0 0 7380.000 3105.000 7380 3060 7335 3105 7380 3150
6 1260 2430 2340 2970
6 1260 2430 2340 2970
2 1 0 1 0 7 50 -1 -1 0.000 0 0 -1 0 0 2
	 1598 2970 2003 2970
2 1 0 1 0 7 50 -1 -1 0.000 0 0 -1 0 0 2
	 1517 2880 2084 2880
2 1 0 1 0 7 50 -1 -1 0.000 0 0 -1 0 0 2
	 1454 2790 2147 2790
2 1 0 1 0 7 50 -1 -1 0.000 0 0 -1 0 0 2
	 1395 2700 2205 2700
2 1 0 1 0 7 50 -1 -1 0.000 0 0 -1 0 0 2
	 1350 2610 2250 2610
2 1 0 1 0 7 50 -1 -1 0.000 0 0 -1 0 0 2
	 1314 2520 2286 2520
2 1 0 1 0 7 50 -1 -1 0.000 0 0 -1 0 0 2
	 1283 2430 2318 2430
-6
-6
6 3420 2430 4500 2970
6 3420 2430 4500 2970
2 1 0 1 0 7 50 -1 -1 0.000 0 0 -1 0 0 2
	 3758 2970 4163 2970
2 1 0 1 0 7 50 -1 -1 0.000 0 0 -1 0 0 2
	 3677 2880 4244 2880
2 1 0 1 0 7 50 -1 -1 0.000 0 0 -1 0 0 2
	 3614 2790 4307 2790
2 1 0 1 0 7 50 -1 -1 0.000 0 0 -1 0 0 2
	 3555 2700 4365 2700
2 1 0 1 0 7 50 -1 -1 0.000 0 0 -1 0 0 2
	 3510 2610 4410 2610
2 1 0 1 0 7 50 -1 -1 0.000 0 0 -1 0 0 2
	 3474 2520 4446 2520
2 1 0 1 0 7 50 -1 -1 0.000 0 0 -1 0 0 2
	 3443 2430 4478 2430
-6
-6
6 5580 2430 6660 2970
6 5580 2430 6660 2970
2 1 0 1 0 7 50 -1 -1 0.000 0 0 -1 0 0 2
	 5918 2970 6323 2970
2 1 0 1 0 7 50 -1 -1 0.000 0 0 -1 0 0 2
	 5837 2880 6404 2880
2 1 0 1 0 7 50 -1 -1 0.000 0 0 -1 0 0 2
	 5774 2790 6467 2790
2 1 0 1 0 7 50 -1 -1 0.000 0 0 -1 0 0 2
	 5715 2700 6525 2700
2 1 0 1 0 7 50 -1 -1 0.000 0 0 -1 0 0 2
	 5670 2610 6570 2610
2 1 0 1 0 7 50 -1 -1 0.000 0 0 -1 0 0 2
	 5634 2520 6606 2520
2 1 0 1 0 7 50 -1 -1 0.000 0 0 -1 0 0 2
	 5603 2430 6638 2430
-6
-6
6 6840 2610 7920 3150
6 6840 2610 7920 3150
2 1 0 1 0 7 50 -1 -1 0.000 0 0 -1 0 0 2
	 7178 3150 7583 3150
2 1 0 1 0 7 50 -1 -1 0.000 0 0 -1 0 0 2
	 7097 3060 7664 3060
2 1 0 1 0 7 50 -1 -1 0.000 0 0 -1 0 0 2
	 7034 2970 7727 2970
2 1 0 1 0 7 50 -1 -1 0.000 0 0 -1 0 0 2
	 6975 2880 7785 2880
2 1 0 1 0 7 50 -1 -1 0.000 0 0 -1 0 0 2
	 6930 2790 7830 2790
2 1 0 1 0 7 50 -1 -1 0.000 0 0 -1 0 0 2
	 6894 2700 7866 2700
2 1 0 1 0 7 50 -1 -1 0.000 0 0 -1 0 0 2
	 6863 2610 7898 2610
-6
-6
6 -900 2430 180 2970
6 -900 2430 180 2970
2 1 0 1 0 7 50 -1 -1 0.000 0 0 -1 0 0 2
	 -562 2970 -157 2970
2 1 0 1 0 7 50 -1 -1 0.000 0 0 -1 0 0 2
	 -643 2880 -76 2880
2 1 0 1 0 7 50 -1 -1 0.000 0 0 -1 0 0 2
	 -706 2790 -13 2790
2 1 0 1 0 7 50 -1 -1 0.000 0 0 -1 0 0 2
	 -765 2700 45 2700
2 1 0 1 0 7 50 -1 -1 0.000 0 0 -1 0 0 2
	 -810 2610 90 2610
2 1 0 1 0 7 50 -1 -1 0.000 0 0 -1 0 0 2
	 -846 2520 126 2520
2 1 0 1 0 7 50 -1 -1 0.000 0 0 -1 0 0 2
	 -877 2430 158 2430
-6
-6
2 1 0 1 0 7 50 -1 -1 0.000 0 0 -1 0 0 1
	 9045 5040
2 1 0 1 0 7 50 -1 -1 0.000 0 0 -1 1 0 2
	0 0 1.00 60.00 120.00
	 -540 6885 -540 2520
2 1 0 1 0 7 50 -1 -1 0.000 0 0 -1 1 0 2
	0 0 1.00 60.00 120.00
	 1890 2520 1890 6885
2 1 0 1 0 7 50 -1 -1 0.000 0 0 -1 1 0 2
	0 0 1.00 60.00 120.00
	 3870 2880 3870 6885
2 1 0 1 0 7 50 -1 -1 0.000 0 0 -1 1 0 2
	0 0 1.00 60.00 120.00
	 6210 2880 7380 2970
2 1 0 1 0 7 50 -1 -1 0.000 0 0 -1 1 0 2
	0 0 1.00 60.00 120.00
	 7380 3150 7380 6885
2 1 0 1 0 7 50 -1 -1 0.000 0 0 -1 0 0 2
	 -1260 6885 8280 6885
3 2 0 1 0 7 50 -1 -1 0.000 0 0 0 3
	 900 1170 1800 3060 2700 1170
	 0.000 -1.000 0.000
3 2 0 1 0 7 50 -1 -1 0.000 0 0 0 3
	 3060 1170 3960 3060 4860 1170
	 0.000 -1.000 0.000
3 2 0 1 0 7 50 -1 -1 0.000 0 0 0 3
	 5220 1170 6120 3060 7020 1170
	 0.000 -1.000 0.000
3 2 0 1 0 7 50 -1 -1 0.000 0 0 0 3
	 6480 1350 7380 3240 8280 1350
	 0.000 -1.000 0.000
3 2 0 1 0 7 50 -1 -1 0.000 0 0 0 3
	 -1260 1170 -360 3060 540 1170
	 0.000 -1.000 0.000
4 0 0 50 -1 0 12 0.0000 4 180 555 7110 1890 Triplet\001
4 0 0 50 -1 0 12 0.0000 4 180 690 5760 1890 Singulet\001
4 0 0 50 -1 0 12 0.0000 4 135 795 -450 4545 Absorbtie\001
4 0 0 50 -1 0 12 0.0000 4 135 885 1980 4545 Re-emissie\001
4 0 0 50 -1 0 12 0.0000 4 180 690 6570 6795 Singulet\001
4 0 0 50 -1 0 12 0.0000 4 135 1170 6120 4545 Fosforescentie\001
4 0 0 50 -1 0 12 0.0000 4 135 1095 3960 4545 Fluorescentie\001
