#FIG 3.2  Produced by xfig version 3.2.5a
Landscape
Center
Metric
A4      
100.00
Single
-2
1200 2
2 1 0 1 0 7 50 -1 -1 0.000 0 0 -1 0 0 2
	 0 6120 6750 6120
2 1 0 1 0 7 50 -1 -1 0.000 0 0 -1 0 0 2
	 0 1530 6750 1530
2 1 0 1 0 7 50 -1 -1 0.000 0 0 -1 0 0 2
	 0 680 6750 680
2 1 0 1 0 7 50 -1 -1 0.000 0 0 -1 0 0 2
	 0 245 6750 245
2 1 0 1 0 7 50 -1 -1 0.000 0 0 -1 0 0 2
	 0 170 6750 170
2 1 0 1 0 7 50 -1 -1 0.000 0 0 -1 0 0 2
	 0 125 6750 125
2 1 0 1 0 7 50 -1 -1 0.000 0 0 -1 0 0 2
	 0 0 -90 0
2 1 0 1 0 7 50 -1 -1 0.000 0 0 -1 0 0 2
	 0 450 -90 450
2 1 0 1 0 7 50 -1 -1 0.000 0 0 -1 0 0 2
	 0 900 -90 900
2 1 0 1 0 7 50 -1 -1 0.000 0 0 -1 0 0 2
	 0 1350 -90 1350
2 1 0 1 0 7 50 -1 -1 0.000 0 0 -1 0 0 2
	 0 1800 -90 1800
2 1 0 1 0 7 50 -1 -1 0.000 0 0 -1 0 0 2
	 0 2250 -90 2250
2 1 0 1 0 7 50 -1 -1 0.000 0 0 -1 0 0 2
	 0 2700 -90 2700
2 1 0 1 0 7 50 -1 -1 0.000 0 0 -1 0 0 2
	 0 3150 -90 3150
2 1 0 1 0 7 50 -1 -1 0.000 0 0 -1 0 0 2
	 0 3600 -90 3600
2 1 0 1 0 7 50 -1 -1 0.000 0 0 -1 0 0 2
	 0 4050 -90 4050
2 1 0 1 0 7 50 -1 -1 0.000 0 0 -1 0 0 2
	 0 4500 -90 4500
2 1 0 1 0 7 50 -1 -1 0.000 0 0 -1 0 0 2
	 0 4950 -90 4950
2 1 0 1 0 7 50 -1 -1 0.000 0 0 -1 0 0 3
	 0 6300 0 0 6750 0
2 1 0 1 0 7 50 -1 -1 0.000 0 0 -1 0 0 2
	 0 5400 -90 5400
2 1 0 1 0 7 50 -1 -1 0.000 0 0 -1 0 0 2
	 0 5850 -90 5850
2 1 0 1 0 7 50 -1 -1 0.000 0 0 7 1 0 2
	0 0 1.00 60.00 120.00
	 -180 5940 -180 6390
2 1 0 1 0 7 50 -1 -1 0.000 0 0 -1 1 0 2
	0 0 1.00 60.00 120.00
	 1080 1530 1080 6120
2 1 0 1 0 7 50 -1 -1 0.000 0 0 -1 1 0 2
	0 0 1.00 60.00 120.00
	 1350 675 1350 6120
2 1 0 1 0 7 50 -1 -1 0.000 0 0 -1 1 0 2
	0 0 1.00 60.00 120.00
	 1890 270 1890 6120
2 1 0 1 0 7 50 -1 -1 0.000 0 0 -1 1 0 2
	0 0 1.00 60.00 120.00
	 1620 360 1620 6120
2 1 0 1 0 7 50 -1 -1 0.000 0 0 -1 1 0 2
	0 0 1.00 60.00 120.00
	 2430 675 2430 1530
2 1 0 1 0 7 50 -1 -1 0.000 0 0 -1 1 0 2
	0 0 1.00 60.00 120.00
	 2700 405 2700 1530
2 1 0 1 0 7 50 -1 -1 0.000 0 0 -1 1 0 2
	0 0 1.00 60.00 120.00
	 2970 270 2970 1530
2 1 0 1 0 7 50 -1 -1 0.000 0 0 -1 1 0 2
	0 0 1.00 60.00 120.00
	 3240 180 3240 1530
2 1 0 1 0 7 50 -1 -1 0.000 0 0 -1 0 0 2
	 0 383 6750 383
2 1 0 1 0 7 50 -1 -1 0.000 0 0 -1 1 0 2
	0 0 1.00 60.00 120.00
	 3780 405 3780 675
2 1 0 1 0 7 50 -1 -1 0.000 0 0 -1 1 0 2
	0 0 1.00 60.00 120.00
	 4050 270 4050 675
2 1 0 1 0 7 50 -1 -1 0.000 0 0 -1 1 0 2
	0 0 1.00 60.00 120.00
	 4320 180 4320 675
2 1 0 1 0 7 50 -1 -1 0.000 0 0 -1 1 0 2
	0 0 1.00 60.00 120.00
	 4590 135 4590 675
4 0 0 50 -1 0 12 0.0000 4 135 105 -270 45 0\001
4 0 0 50 -1 0 12 0.0000 4 180 1230 -360 6570 Energie in [eV]\001
4 0 0 50 -1 0 12 0.0000 4 135 270 -405 4545 -10\001
4 0 0 50 -1 0 12 0.0000 4 135 165 -315 2295 -5\001
4 0 0 50 -1 0 12 0.0000 4 180 570 1260 6300 Lyman\001
4 0 0 50 -1 0 12 1.5708 4 165 720 1305 4545 102,6nm\001
4 0 0 50 -1 0 12 1.5708 4 165 720 1035 4545 121,6nm\001
4 0 0 50 -1 0 12 1.5708 4 165 615 1575 4455 97,2nm\001
4 0 0 50 -1 0 12 1.5708 4 165 615 1845 4455 95,0nm\001
4 0 0 50 -1 0 12 1.5708 4 135 570 2385 1440 656nm\001
4 0 0 50 -1 0 12 1.5708 4 135 570 2655 1440 486nm\001
4 0 0 50 -1 0 12 1.5708 4 135 570 2925 1440 434nm\001
4 0 0 50 -1 0 12 1.5708 4 135 570 3195 1440 410nm\001
4 0 0 50 -1 0 12 1.5708 4 135 675 3735 1395 1870nm\001
4 0 0 50 -1 0 12 1.5708 4 135 675 4005 1395 1280nm\001
4 0 0 50 -1 0 12 1.5708 4 135 675 4275 1395 1090nm\001
4 0 0 50 -1 0 12 1.5708 4 135 675 4545 1395 1004nm\001
4 0 0 50 -1 0 12 0.0000 4 135 585 2520 1755 Balmer\001
4 0 0 50 -1 0 12 0.0000 4 135 660 4635 900 Paschen\001
4 0 0 50 -1 0 12 0.0000 4 90 210 6840 0 n=\001
4 0 0 50 -1 0 12 1.5708 4 135 105 7245 0 8\001
4 0 0 50 -1 0 12 0.0000 4 135 315 6930 6120 n=1\001
4 0 0 50 -1 0 12 0.0000 4 135 315 6840 1530 n=2\001
4 0 0 50 -1 0 12 0.0000 4 135 315 6840 675 n=3\001
4 0 0 50 -1 0 12 0.0000 4 135 315 6840 360 n=4\001
